Time (s),Temperature (K)
5.050407828577793e-12,999.9999999999997
2.634411254696692e-08,999.999999998244
1.1776651170071666e-07,999.9999999921735
2.091889108544664e-07,999.9999999861351
3.0061131000821614e-07,999.9999999801338
3.920337091619659e-07,999.9999999741718
4.834561083157156e-07,999.9999999682509
6.513708203536975e-07,999.9999999574869
8.192855323916794e-07,999.9999999468713
9.872002444296614e-07,999.999999936408
1.3276970623036007e-06,999.9999999156731
1.66819388017754e-06,999.9999998955976
2.008690698051479e-06,999.9999998762041
2.3491875159254182e-06,999.9999998575144
2.6896843337993574e-06,999.9999998395476
3.0301811516732965e-06,999.9999998223223
3.3706779695472356e-06,999.9999998058569
3.95937706658234e-06,999.9999997792415
4.548076163617445e-06,999.9999997550683
5.13677526065255e-06,999.9999997334547
5.725474357687655e-06,999.9999997145251
6.642089802256089e-06,999.9999996907025
7.558705246824523e-06,999.9999996742273
8.475320691392957e-06,999.9999996656635
9.391936135961391e-06,999.9999996656162
1.0308551580529825e-05,999.9999996747374
1.1225167025098259e-05,999.9999996937306
1.2141782469666693e-05,999.9999997233546
1.3578688161012364e-05,999.999999793167
1.5015593852358035e-05,999.9999998945964
1.6452499543703706e-05,1000.0000000315268
1.7889405235049375e-05,1000.0000002083219
1.9326310926395044e-05,1000.0000004298865
2.0763216617740714e-05,1000.0000007017309
2.2200122309086383e-05,1000.0000010300402
2.3637028000432052e-05,1000.0000014217576
2.507393369177772e-05,1000.0000018846808
2.651083938312339e-05,1000.0000024275686
2.794774507446906e-05,1000.0000030602572
2.938465076581473e-05,1000.0000037937922
3.08215564571604e-05,1000.0000046405763
3.225846214850607e-05,1000.0000056145378
3.369536783985174e-05,1000.0000067313191
3.513227353119741e-05,1000.0000080084872
3.656917922254308e-05,1000.0000094657689
3.800608491388875e-05,1000.0000111253172
3.944299060523442e-05,1000.0000130120095
4.0879896296580086e-05,1000.0000151537841
4.2316801987925755e-05,1000.0000175820171
4.3753707679271425e-05,1000.0000203319423
4.5190613370617094e-05,1000.0000234431268
4.662751906196276e-05,1000.000026960005
4.806442475330843e-05,1000.0000309324809
4.95013304446541e-05,1000.0000354165957
5.093823613599977e-05,1000.000040475283
5.237514182734544e-05,1000.0000461792187
5.381204751869111e-05,1000.000052607776
5.524895321003678e-05,1000.0000598500958
5.668585890138245e-05,1000.0000680062864
5.812276459272812e-05,1000.000077188773
5.9559670284073786e-05,1000.0000875238162
6.0618135823722815e-05,1000.0000959561812
6.167660136337184e-05,1000.0001051531692
6.273506690302087e-05,1000.000115183021
6.37935324426699e-05,1000.0001261200625
6.485199798231893e-05,1000.0001380452525
6.591046352196796e-05,1000.00015104678
6.696892906161699e-05,1000.0001652207129
6.802739460126601e-05,1000.0001806716989
6.908586014091504e-05,1000.0001975137318
7.014432568056407e-05,1000.0002158709882
7.12027912202131e-05,1000.0002358787394
7.226125675986213e-05,1000.000257684345
7.331972229951116e-05,1000.000281448334
7.437818783916019e-05,1000.0003073455846
7.543665337880921e-05,1000.0003355666094
7.649511891845824e-05,1000.0003663189573
7.755358445810727e-05,1000.0003998287407
7.86120499977563e-05,1000.0004363423006
7.967051553740533e-05,1000.0004761280225
8.072898107705436e-05,1000.0005194783153
8.178744661670339e-05,1000.0005667117705
8.284591215635241e-05,1000.0006181755159
8.362375704494932e-05,1000.0006589103449
8.440160193354623e-05,1000.0007022949305
8.517944682214313e-05,1000.000748501456
8.595729171074004e-05,1000.0007977133166
8.673513659933695e-05,1000.0008501258568
8.751298148793385e-05,1000.0009059471596
8.829082637653076e-05,1000.0009653988855
8.906867126512767e-05,1000.0010287171617
8.984651615372457e-05,1000.0010961535321
9.062436104232148e-05,1000.0011679759708
9.140220593091839e-05,1000.0012444699665
9.218005081951529e-05,1000.0013259396775
9.29578957081122e-05,1000.0014127091628
9.37357405967091e-05,1000.0015051236982
9.451358548530601e-05,1000.0016035511794
9.529143037390292e-05,1000.0017083836213
9.606927526249982e-05,1000.001820038758
9.684712015109673e-05,1000.0019389617515
9.762496503969364e-05,1000.0020656270177
9.840280992829054e-05,1000.0022005401754
9.918065481688745e-05,1000.0023442401309
9.995849970548436e-05,1000.0024973013042
0.00010073634459408126,1000.0026603360096
0.00010151418948267817,1000.002833997002
0.00010229203437127508,1000.0030189801978
0.00010306987925987198,1000.0032160275887
0.00010384772414846889,1000.0034259303577
0.0001046255690370658,1000.0036495322154
0.0001054034139256627,1000.0038877329719
0.00010618125881425961,1000.0041414923634
0.00010695910370285651,1000.0044118341518
0.00010773694859145342,1000.0046998505193
0.00010851479348005033,1000.0050067067799
0.00010929263836864723,1000.005333646435
0.00011007048325724414,1000.0056819965971
0.00011084832814584105,1000.0060531738145
0.00011162617303443795,1000.0064486903268
0.00011240401792303486,1000.0068701607883
0.00011297858617362815,1000.0071991596683
0.00011355315442422145,1000.0075439938681
0.00011412772267481474,1000.0079054358974
0.00011470229092540803,1000.00828429694
0.00011527685917600133,1000.0086814288892
0.00011585142742659462,1000.0090977265121
0.00011642599567718791,1000.0095341297271
0.0001170005639277812,1000.0099916260017
0.0001175751321783745,1000.0104712528902
0.00011814970042896779,1000.0109741007248
0.00011872426867956109,1000.0115013154667
0.00011929883693015438,1000.0120541017257
0.00011987340518074767,1000.012633725956
0.00012044797343134097,1000.0132415198461
0.00012102254168193426,1000.0138788839138
0.00012159710993252755,1000.0145472913208
0.00012217167818312085,1000.0152482919226
0.00012274624643371414,1000.0159835165672
0.00012332081468430743,1000.016754681664
0.00012389538293490073,1000.0175635940391
0.00012446995118549402,1000.0184121560995
0.00012504451943608731,1000.0193023713274
0.0001256190876866806,1000.0202363501279
0.0001261936559372739,1000.0212163160585
0.0001267682241878672,1000.0222446124659
0.0001273427924384605,1000.0233237095621
0.00012791736068905378,1000.024456211972
0.00012849192893964707,1000.0256448667886
0.00012906649719024037,1000.0268925721739
0.00012964106544083366,1000.0282023865492
0.00013021563369142695,1000.0295775384183
0.00013079020194202025,1000.0310214368737
0.00013136477019261354,1000.0325376828401
0.00013193933844320683,1000.0341300811127
0.00013251390669380013,1000.0358026532548
0.00013308847494439342,1000.0375596514222
0.00013366304319498672,1000.0394055731907
0.00013423761144558,1000.0413451774675
0.0001348121796961733,1000.0433835015748
0.0001353867479467666,1000.0455258796036
0.0001359613161973599,1000.0477779621425
0.00013653588444795318,1000.050145737494
0.00013711045269854648,1000.0526355545038
0.00013768502094913977,1000.0552541471452
0.00013825958919973306,1000.0580086609993
0.00013883415745032636,1000.0609066817942
0.00013940872570091965,1000.0639562661801
0.00013998329395151294,1000.0671659749337
0.00014055786220210624,1000.0705449088022
0.00014113243045269953,1000.0741027472131
0.00014170699870329282,1000.0778497901014
0.00014228156695388612,1000.0817970031234
0.0001428561352044794,1000.085956066558
0.0001434307034550727,1000.0903394282166
0.0001438539239330676,1000.0937193282875
0.0001442771444110625,1000.0972337160244
0.0001447003648890574,1000.1008884760446
0.00014512358536705232,1000.1046897834564
0.00014554680584504722,1000.1086441201023
0.00014597002632304212,1000.1127582919058
0.00014639324680103702,1000.1170394471928
0.00014681646727903193,1000.1214950960489
0.00014723968775702683,1000.1261331308791
0.00014766290823502173,1000.1309618482934
0.00014808612871301664,1000.1359899723711
0.00014850934919101154,1000.14122667936
0.00014893256966900644,1000.1466816239002
0.00014935579014700134,1000.1523649668919
0.00014977901062499625,1000.1582874051182
0.00015020223110299115,1000.1644602027296
0.00015062545158098605,1000.1708952247038
0.00015104867205898096,1000.1776049724061
0.00015147189253697586,1000.1846026213861
0.00015189511301497076,1000.1919020615563
0.00015231833349296567,1000.1995179398958
0.00015274155397096057,1000.20746570584
0.00015316477444895547,1000.2157616595216
0.00015358799492695037,1000.2244230030418
0.00015401121540494528,1000.233467894954
0.00015443443588294018,1000.2429155081524
0.00015485765636093508,1000.2527860913739
0.00015528087683892999,1000.2631010345274
0.0001557040973169249,1000.2738829380744
0.0001561273177949198,1000.2851556866958
0.0001565505382729147,1000.2969445274883
0.0001569737587509096,1000.3092761529455
0.0001573969792289045,1000.3221787889877
0.0001578201997068994,1000.3356822883148
0.0001582434201848943,1000.3498182293606
0.0001586666406628892,1000.3646200211405
0.0001590898611408841,1000.3801230142875
0.00015951308161887902,1000.396364618578
0.00015993630209687392,1000.4133844272533
0.00016035952257486882,1000.4312243484446
0.00016078274305286373,1000.4499287440193
0.00016120596353085863,1000.4695445761225
0.00016162918400885353,1000.4901215617365
0.00016205240448684843,1000.511712335591
0.00016247562496484334,1000.5343726216585
0.00016289884544283824,1000.5581614134895
0.00016332206592083314,1000.5831411636564
0.00016374528639882805,1000.609377982536
0.00016416850687682295,1000.636941846628
0.00016459172735481785,1000.6659068165561
0.00016501494783281275,1000.696351264866
0.00016543816831080766,1000.7283581136984
0.00016586138878880256,1000.7620150823607
0.00016628460926679746,1000.797414944763
0.00016670782974479237,1000.8346557966171
0.00016713105022278727,1000.8738413322309
0.00016755427070078217,1000.9150811306664
0.00016797749117877708,1000.9584909509547
0.00016840071165677198,1001.0041930359873
0.00016882393213476688,1001.0523164246362
0.00016924715261276178,1001.1029972717547
0.0001696703730907567,1001.156379174907
0.0001700935935687516,1001.2126135077746
0.0001705168140467465,1001.2718597597052
0.0001709400345247414,1001.3342858805191
0.0001713632550027363,1001.4000686298306
0.0001717864754807312,1001.4693939304113
0.0001722096959587261,1001.5424572253067
0.000172632916436721,1001.6194638384892
0.0001730561369147159,1001.7006293389735
0.00017347935739271081,1001.7861799086296
0.00017390257787070572,1001.876352714379
0.00017432579834870062,1001.971396285952
0.00017474901882669552,1002.0715709009053
0.00017517223930469043,1002.1771489792129
0.00017548435449474118,1002.2586383000905
0.00017579646968479194,1002.3433399294861
0.0001761085848748427,1002.4313766005978
0.00017642070006489345,1002.5228750799271
0.0001767328152549442,1002.6179662725328
0.00017704493044499496,1002.7167853331172
0.0001773570456350457,1002.8194717834076
0.00017766916082509647,1002.9261696368707
0.00017798127601514722,1003.0370275320957
0.00017829339120519798,1003.1521988760651
0.00017860550639524873,1003.2718419983903
0.0001789176215852995,1003.3961203176713
0.00017922973677535024,1003.5252025212941
0.000179541851965401,1003.6592627599362
0.00017985396715545175,1003.7984808586111
0.0001801660823455025,1003.9430425446195
0.00018047819753555327,1004.0931396942316
0.00018079031272560402,1004.2489705992941
0.00018110242791565478,1004.4107402548664
0.00018141454310570553,1004.5786606688114
0.00018172665829575629,1004.7529511939874
0.00018203877348580704,1004.9338388846729
0.0001823508886758578,1005.1215588772114
0.00018266300386590855,1005.31635479444
0.0001829751190559593,1005.5184791757011
0.00018328723424601006,1005.7281939322954
0.00018359934943606082,1005.9457708282469
0.00018391146462611157,1006.171491985964
0.00018422357981616233,1006.4056504166374
0.00018453569500621308,1006.648550575224
0.00018484781019626384,1006.9005089398208
0.0001851599253863146,1007.1618546150985
0.00018547204057636535,1007.4329299594875
0.0001857841557664161,1007.7140912359677
0.00018609627095646686,1008.0057092865485
0.00018640838614651762,1008.3081702307597
0.00018672050133656837,1008.6218761887177
0.00018703261652661913,1008.9472460296294
0.00018734473171666988,1009.2847161469704
0.00018765684690672064,1009.634741261978
0.0001879689620967714,1009.9977952583455
0.00018828107728682215,1010.3743720475039
0.0001885931924768729,1010.7649864709041
0.00018890530766692366,1011.1701752427333
0.0001892174228569744,1011.590497935237
0.00018952953804702517,1012.026538010311
0.00018984165323707592,1012.4789039024603
0.00019015376842712668,1012.948230158633
0.00019046588361717743,1013.4351786401979
0.0001907779988072282,1013.9404397922278
0.00019109011399727894,1014.4647339856194
0.0001914022291873297,1015.008812938166
0.00019171434437738045,1015.5734612211039
0.0001920264595674312,1016.1594978578098
0.00019233857475748197,1016.7677780214999
0.00019265068994753272,1017.3991948391441
0.00019296280513758348,1018.0546813093174
0.00019327492032763423,1018.7352123422346
0.00019358703551768499,1019.4418069307426
0.00019389915070773574,1020.1755304616518
0.0001942112658977865,1020.9374971772637
0.00019444232452870333,1021.5204578435735
0.00019467338315962016,1022.1200267031945
0.000194904441790537,1022.7367126962946
0.00019513550042145382,1023.3710424025884
0.00019536655905237065,1024.023560765914
0.00019559761768328748,1024.6948318590412
0.00019582867631420432,1025.3854396837726
0.00019605973494512115,1026.095989008068
0.00019629079357603798,1026.8271062457832
0.0001965218522069548,1027.5794403832558
0.00019675291083787164,1028.3536639545646
0.00019698396946878847,1029.1504740671683
0.0001972150280997053,1029.9705934808374
0.00019744608673062213,1030.814771743722
0.00019767714536153897,1031.6837863892686
0.0001979082039924558,1032.578444197674
0.00019813926262337263,1033.499582525534
0.00019837032125428946,1034.4480707081336
0.0001986013798852063,1035.4248115386883
0.00019883243851612312,1036.4307428297554
0.00019906349714703995,1037.4668390615882
0.00019929455577795678,1038.5341131232794
0.00019952561440887362,1039.63361815252
0.00019975667303979045,1040.7664494797561
0.00019998773167070728,1041.933746684376
0.0002002187903016241,1043.1366957684038
0.00020044984893254094,1044.3765314585776
0.00020068090756345777,1045.6545396380552
0.0002009119661943746,1046.9720599305451
0.00020108134016449193,1047.9637510598773
0.00020125071413460926,1048.977992572394
0.0002014200881047266,1050.0153722776151
0.00020158946207484392,1051.0764964293137
0.00020175883604496125,1052.1619904216298
0.00020192821001507858,1053.2724995261922
0.0002020975839851959,1054.4086896610668
0.00020226695795531324,1055.5712481814357
0.00020243633192543057,1056.7608847038748
0.0002026057058955479,1057.9783319754106
0.00020277507986566522,1059.224346782907
0.00020294445383578255,1060.4997108927923
0.00020311382780589988,1061.805232029305
0.0002032832017760172,1063.1417449049234
0.00020345257574613454,1064.5101122977555
0.00020362194971625187,1065.9112261601663
0.0002037913236863692,1067.3460087814315
0.00020396069765648653,1068.8154140054662
0.00020413007162660386,1070.3204284946437
0.0002042994455967212,1071.8620730472912
0.00020446881956683852,1073.4414039630276
0.00020463819353695584,1075.0595144694573
0.00020480756750707317,1076.7175362082353
0.0002049769414771905,1078.4166407752023
0.00020514631544730783,1080.1580413171662
0.00020531568941742516,1081.9429941886563
0.0002054850633875425,1083.772800669567
0.00020565443735765982,1085.648808742357
0.00020582381132777715,1087.5724149270939
0.00020599318529789448,1089.545066173066
0.0002061625592680118,1091.5682618056462
0.00020633193323812914,1093.6435555258906
0.00020650130720824647,1095.772557458707
0.0002066706811783638,1097.9569362439584
0.00020684005514848112,1100.1984211637985
0.00020700942911859845,1102.498804298126
0.00020717880308871578,1104.8599426981195
0.0002073481770588331,1107.2837605651189
0.00020751755102895044,1109.772251419493
0.00020768692499906777,1112.3274802407059
0.0002078562989691851,1114.9515855580753
0.00020802567293930243,1117.6467814611917
0.00020819504690941976,1120.4153595027487
0.00020836442087953709,1123.2596904628465
0.00020853379484965442,1126.18222592141
0.00020870316881977174,1129.185499589356
0.00020887254278988907,1132.272128345206
0.0002090419167600064,1135.4448129041116
0.00020921129073012373,1138.706338054799
0.00020932848869256005,1141.0166515507242
0.00020944568665499637,1143.37184655803
0.0002095628846174327,1145.772915429034
0.00020964745908729472,1147.534683032242
0.00020973203355715675,1149.3212516497151
0.00020981660802701877,1151.1330117302691
0.0002099011824968808,1152.9703583725916
0.00020998575696674283,1154.833691177816
0.00021007033143660486,1156.723414078254
0.0002101549059064669,1158.6399351553487
0.00021023948037632892,1160.5836664364938
0.00021032405484619094,1162.555023653208
0.00021040862931605297,1164.5544259707763
0.000210493203785915,1166.5822957054143
0.00021057777825577703,1168.6390580028542
0.00021066235272563906,1170.7251404752355
0.00021074692719550109,1172.840972804955
0.00021083150166536311,1174.986986315979
0.00021091607613522514,1177.1636135092276
0.00021097810431953281,1178.7796951731277
0.00021104013250384049,1180.4126477900177
0.00021110216068814816,1182.0626421973955
0.00021116418887245583,1183.7298490033086
0.0002112262170567635,1185.414438434686
0.00021128824524107117,1187.1165801822674
0.00021135027342537884,1188.8364432473436
0.00021141230160968651,1190.5741957745556
0.00021147432979399419,1192.330004863605
0.00021153635797830186,1194.1040363759091
0.00021159838616260953,1195.8964547470084
0.0002116604143469172,1197.7074227741805
0.00021172244253122487,1199.5371013921717
0.00021178447071553254,1201.3856494416239
0.0002118464988998402,1203.2532234226007
0.00021190852708414788,1205.1399772464542
0.00021197055526845556,1207.04606197216
0.00021203258345276323,1208.9716255164228
0.0002120946116370709,1210.916812365981
0.00021215663982137857,1212.8817632746466
0.00021221866800568624,1214.866614950553
0.0002122806961899939,1216.8714997218574
0.00021234272437430158,1218.8965451910549
0.00021240475255860926,1220.9418738807144
0.00021246678074291693,1223.0076028652988
0.0002125288089272246,1225.0938433869978
0.00021259083711153227,1227.200700457891
0.00021265286529583994,1229.3282724502017
0.0002127148934801476,1231.4766506740793
0.00021277692166445528,1233.6459189420318
0.00021283894984876295,1235.8361531202986
0.00021290097803307063,1238.0474206681347
0.0002129630062173783,1240.2797801657136
0.00021302503440168597,1242.5332808309875
0.00021311949895440872,1246.0059040215028
0.00021321396350713147,1249.527741137219
0.00021330842805985422,1253.0988245130113
0.00021340289261257697,1256.719122235549
0.00021349735716529972,1260.3885337563795
0.00021359182171802246,1264.1068854835335
0.00021368628627074521,1267.8739263678951
0.00021378075082346796,1271.6893235111554
0.0002138752153761907,1275.5526578350111
0.00021396967992891346,1279.4634198531535
0.0002140641444816362,1283.4210056008942
0.00021415860903435896,1287.424712787048
0.0002142530735870817,1291.4737371922656
0.00021434753813980446,1295.5671694089942
0.0002144420026925272,1299.7039919657054
0.00021453646724524996,1303.8830768675548
0.0002146309317979727,1308.1031836822808
0.00021472539635069546,1312.362958213455
0.0002148198609034182,1316.6609318018673
0.00021491432545614096,1320.9955213233106
0.0002150087900088637,1325.3650299608269
0.00021510325456158645,1329.7676488016825
0.0002151977191143092,1334.201459287695
0.00021529218366703195,1338.664436558063
0.00021535975001590866,1341.8733228937208
0.00021542731636478536,1345.0952356708503
0.00021549488271366206,1348.329341789838
0.00021556244906253876,1351.5747851432359
0.00021563001541141546,1354.8306879950985
